# Tsai's modification from Fenton 1985 Stokes paper with notional H/d and current (for Stokes and FourWavelength

# Solution by Fourier method with 20 terms in series

# Surface of wave - trough-crest-trough, note quadratic point spacing clustered around crest
# Non-dimensionalised with respect to depth
# X/d, eta/d, & check of surface pressure

 -4.0000	 0.8878	 5e-015
 -3.6864	 0.8894	-8e-012
 -3.3856	 0.8939	-4e-012
 -3.0976	 0.9013	 2e-011
 -2.8224	 0.9117	-1e-011
 -2.5600	 0.9249	-2e-011
 -2.3104	 0.9411	 5e-011
 -2.0736	 0.9600	-5e-011
 -1.8496	 0.9814	 4e-011
 -1.6384	 1.0048	-4e-011
 -1.4400	 1.0294	 4e-011
 -1.2544	 1.0545	-5e-011
 -1.0816	 1.0792	 6e-011
 -0.9216	 1.1024	-6e-011
 -0.7744	 1.1232	 2e-011
 -0.6400	 1.1412	 3e-011
 -0.5184	 1.1559	-4e-011
 -0.4096	 1.1672	-6e-012
 -0.3136	 1.1755	 3e-011
 -0.2304	 1.1810	 1e-011
 -0.1600	 1.1845	-9e-012
 -0.1024	 1.1865	-1e-011
 -0.0576	 1.1874	-5e-012
 -0.0256	 1.1877	-1e-012
 -0.0064	 1.1878	-6e-014
  0.0000	 1.1878	 5e-015
  0.0064	 1.1878	-6e-014
  0.0256	 1.1877	-1e-012
  0.0576	 1.1874	-5e-012
  0.1024	 1.1865	-1e-011
  0.1600	 1.1845	-9e-012
  0.2304	 1.1810	 1e-011
  0.3136	 1.1755	 3e-011
  0.4096	 1.1672	-6e-012
  0.5184	 1.1559	-4e-011
  0.6400	 1.1412	 3e-011
  0.7744	 1.1232	 2e-011
  0.9216	 1.1024	-6e-011
  1.0816	 1.0792	 6e-011
  1.2544	 1.0545	-5e-011
  1.4400	 1.0294	 4e-011
  1.6384	 1.0048	-4e-011
  1.8496	 0.9814	 4e-011
  2.0736	 0.9600	-5e-011
  2.3104	 0.9411	 5e-011
  2.5600	 0.9249	-2e-011
  2.8224	 0.9117	-1e-011
  3.0976	 0.9013	 2e-011
  3.3856	 0.8939	-4e-012
  3.6864	 0.8894	-8e-012
  4.0000	 0.8878	 5e-015

