# Tsai's modification from Fenton 1985 Stokes paper with notional H/d and current (for LtE paper)

# Solution by 5-order Stokes theory

# Surface of wave - trough-crest-trough, note quadratic point spacing clustered around crest
# Non-dimensionalised with respect to depth
# X/d, eta/d, & check of surface pressure

 -4.0000	 0.8875	-1e-003
 -3.6864	 0.8888	-7e-004
 -3.3856	 0.8929	 5e-006
 -3.0976	 0.9001	 6e-004
 -2.8224	 0.9108	 7e-004
 -2.5600	 0.9249	 3e-004
 -2.3104	 0.9421	-3e-004
 -2.0736	 0.9616	-7e-004
 -1.8496	 0.9830	-6e-004
 -1.6384	 1.0060	-1e-004
 -1.4400	 1.0302	 4e-004
 -1.2544	 1.0549	 7e-004
 -1.0816	 1.0793	 7e-004
 -0.9216	 1.1025	 5e-004
 -0.7744	 1.1233	 2e-004
 -0.6400	 1.1412	-1e-004
 -0.5184	 1.1557	-3e-004
 -0.4096	 1.1668	-4e-004
 -0.3136	 1.1748	-5e-004
 -0.2304	 1.1802	-5e-004
 -0.1600	 1.1836	-5e-004
 -0.1024	 1.1854	-5e-004
 -0.0576	 1.1863	-5e-004
 -0.0256	 1.1866	-5e-004
 -0.0064	 1.1867	-5e-004
  0.0000	 1.1867	-5e-004
  0.0064	 1.1867	-5e-004
  0.0256	 1.1866	-5e-004
  0.0576	 1.1863	-5e-004
  0.1024	 1.1854	-5e-004
  0.1600	 1.1836	-5e-004
  0.2304	 1.1802	-5e-004
  0.3136	 1.1748	-5e-004
  0.4096	 1.1668	-4e-004
  0.5184	 1.1557	-3e-004
  0.6400	 1.1412	-1e-004
  0.7744	 1.1233	 2e-004
  0.9216	 1.1025	 5e-004
  1.0816	 1.0793	 7e-004
  1.2544	 1.0549	 7e-004
  1.4400	 1.0302	 4e-004
  1.6384	 1.0060	-1e-004
  1.8496	 0.9830	-6e-004
  2.0736	 0.9616	-7e-004
  2.3104	 0.9421	-3e-004
  2.5600	 0.9249	 3e-004
  2.8224	 0.9108	 7e-004
  3.0976	 0.9001	 6e-004
  3.3856	 0.8929	 5e-006
  3.6864	 0.8888	-7e-004
  4.0000	 0.8875	-1e-003

