//  Tsai's modification from Fenton 1985 Stokes paper with notional H/d and current (for Stokes and FourWavelength

# Cnoidal Theory - Cnoidal 5th order theory with Aitken convergence enhancement

# Surface of wave - trough-crest-trough, note quadratic point spacing clustered around crest
# Non-dimensionalised with respect to depth
# X/d, eta/d, & check of surface pressure

 -4.0000	  0.8904	 -9e-004
 -3.6864	  0.8944	 -1e-003
 -3.3856	  0.9002	 -1e-003
 -3.0976	  0.9083	 -1e-003
 -2.8224	  0.9186	 -2e-003
 -2.5600	  0.9315	 -2e-003
 -2.3104	  0.9471	 -2e-003
 -2.0736	  0.9652	 -2e-003
 -1.8496	  0.9857	 -2e-003
 -1.6384	  1.0083	 -2e-003
 -1.4400	  1.0322	 -2e-003
 -1.2544	  1.0566	 -2e-003
 -1.0816	  1.0807	 -2e-003
 -0.9216	  1.1035	 -2e-003
 -0.7744	  1.1241	 -1e-003
 -0.6400	  1.1418	 -8e-004
 -0.5184	  1.1563	 -3e-004
 -0.4096	  1.1675	  1e-004
 -0.3136	  1.1757	  5e-004
 -0.2304	  1.1812	  8e-004
 -0.1600	  1.1847	  1e-003
 -0.1024	  1.1866	  1e-003
 -0.0576	  1.1875	  1e-003
 -0.0256	  1.1878	  1e-003
 -0.0064	  1.1879	  1e-003
  0.0000	  1.1879	  1e-003
  0.0064	  1.1879	  1e-003
  0.0256	  1.1878	  1e-003
  0.0576	  1.1875	  1e-003
  0.1024	  1.1866	  1e-003
  0.1600	  1.1847	  1e-003
  0.2304	  1.1812	  8e-004
  0.3136	  1.1757	  5e-004
  0.4096	  1.1675	  1e-004
  0.5184	  1.1563	 -3e-004
  0.6400	  1.1418	 -8e-004
  0.7744	  1.1241	 -1e-003
  0.9216	  1.1035	 -2e-003
  1.0816	  1.0807	 -2e-003
  1.2544	  1.0566	 -2e-003
  1.4400	  1.0322	 -2e-003
  1.6384	  1.0083	 -2e-003
  1.8496	  0.9857	 -2e-003
  2.0736	  0.9652	 -2e-003
  2.3104	  0.9471	 -2e-003
  2.5600	  0.9315	 -2e-003
  2.8224	  0.9186	 -2e-003
  3.0976	  0.9083	 -1e-003
  3.3856	  0.9002	 -1e-003
  3.6864	  0.8944	 -1e-003
  4.0000	  0.8904	 -9e-004