# Tsai's modification from Fenton 1985 Stokes paper with notional H/d and current

# Solution by 7-order Stokes theory

# Surface of wave - trough-crest-trough, note quadratic point spacing clustered around crest
# Non-dimensionalised with respect to depth
# X/d, eta/d, & check of surface pressure

 -0.8270	 0.9238	 3e-004
 -0.7622	 0.9254	 1e-004
 -0.7000	 0.9296	-2e-004
 -0.6404	 0.9359	-3e-004
 -0.5835	 0.9440	-5e-005
 -0.5293	 0.9537	 1e-004
 -0.4777	 0.9650	 1e-004
 -0.4287	 0.9776	-4e-005
 -0.3824	 0.9911	-1e-004
 -0.3387	 1.0051	-7e-006
 -0.2977	 1.0194	 3e-004
 -0.2594	 1.0339	 4e-004
 -0.2236	 1.0486	 4e-004
 -0.1905	 1.0630	 1e-004
 -0.1601	 1.0768	-2e-004
 -0.1323	 1.0891	-5e-004
 -0.1072	 1.0997	-6e-004
 -0.0847	 1.1080	-5e-004
 -0.0648	 1.1142	-3e-004
 -0.0476	 1.1185	-2e-004
 -0.0331	 1.1211	-7e-006
 -0.0212	 1.1226	 9e-005
 -0.0119	 1.1234	 1e-004
 -0.0053	 1.1236	 1e-004
 -0.0013	 1.1237	 2e-004
  0.0000	 1.1237	 2e-004
  0.0013	 1.1237	 2e-004
  0.0053	 1.1236	 1e-004
  0.0119	 1.1234	 1e-004
  0.0212	 1.1226	 9e-005
  0.0331	 1.1211	-7e-006
  0.0476	 1.1185	-2e-004
  0.0648	 1.1142	-3e-004
  0.0847	 1.1080	-5e-004
  0.1072	 1.0997	-6e-004
  0.1323	 1.0891	-5e-004
  0.1601	 1.0768	-2e-004
  0.1905	 1.0630	 1e-004
  0.2236	 1.0486	 4e-004
  0.2594	 1.0339	 4e-004
  0.2977	 1.0194	 3e-004
  0.3387	 1.0051	-7e-006
  0.3824	 0.9911	-1e-004
  0.4287	 0.9776	-4e-005
  0.4777	 0.9650	 1e-004
  0.5293	 0.9537	 1e-004
  0.5835	 0.9440	-5e-005
  0.6404	 0.9359	-3e-004
  0.7000	 0.9296	-2e-004
  0.7622	 0.9254	 1e-004
  0.8270	 0.9238	 3e-004

