# Tsai's modification from Fenton 1985 Stokes paper with notional H/d and current (for Stokes and FourPeriod

# Solution by Fourier method with 20 terms in series

# Surface of wave - trough-crest-trough, note quadratic point spacing clustered around crest
# Non-dimensionalised with respect to depth
# X/d, eta/d, & check of surface pressure

 -0.8263	 0.9246	 1e-015
 -0.7615	 0.9260	-1e-007
 -0.6994	 0.9300	-5e-008
 -0.6399	 0.9363	 3e-007
 -0.5830	 0.9444	-2e-007
 -0.5288	 0.9543	-3e-007
 -0.4773	 0.9656	 6e-007
 -0.4283	 0.9781	-7e-007
 -0.3821	 0.9914	 6e-007
 -0.3384	 1.0053	-5e-007
 -0.2975	 1.0196	 6e-007
 -0.2591	 1.0340	-9e-007
 -0.2234	 1.0482	 1e-006
 -0.1904	 1.0620	-1e-006
 -0.1600	 1.0749	 5e-007
 -0.1322	 1.0868	 8e-007
 -0.1071	 1.0972	-1e-006
 -0.0846	 1.1060	-2e-007
 -0.0648	 1.1129	 1e-006
 -0.0476	 1.1180	 4e-007
 -0.0331	 1.1213	-4e-007
 -0.0212	 1.1233	-4e-007
 -0.0119	 1.1242	-2e-007
 -0.0053	 1.1246	-4e-008
 -0.0013	 1.1246	-3e-009
  0.0000	 1.1246	 8e-013
  0.0013	 1.1246	-3e-009
  0.0053	 1.1246	-4e-008
  0.0119	 1.1242	-2e-007
  0.0212	 1.1233	-4e-007
  0.0331	 1.1213	-4e-007
  0.0476	 1.1180	 4e-007
  0.0648	 1.1129	 1e-006
  0.0846	 1.1060	-2e-007
  0.1071	 1.0972	-1e-006
  0.1322	 1.0868	 8e-007
  0.1600	 1.0749	 5e-007
  0.1904	 1.0620	-1e-006
  0.2234	 1.0482	 1e-006
  0.2591	 1.0340	-9e-007
  0.2975	 1.0196	 6e-007
  0.3384	 1.0053	-5e-007
  0.3821	 0.9914	 6e-007
  0.4283	 0.9781	-7e-007
  0.4773	 0.9656	 6e-007
  0.5288	 0.9543	-3e-007
  0.5830	 0.9444	-2e-007
  0.6399	 0.9363	 3e-007
  0.6994	 0.9300	-5e-008
  0.7615	 0.9260	-1e-007
  0.8263	 0.9246	 1e-015

