//  Le Mehaute Divoky & Lin, Fig. 8 (for Cnoidal and Fourier)

# Cnoidal Theory - Cnoidal 5th order theory with Aitken convergence enhancement

# Surface of wave - trough-crest-trough, note quadratic point spacing clustered around crest
# Non-dimensionalised with respect to depth
# X/d, eta/d, & check of surface pressure

-12.4558	  0.9353	 -3e-004
-11.4792	  0.9353	 -3e-004
-10.5426	  0.9353	 -3e-004
 -9.6457	  0.9353	 -3e-004
 -8.7888	  0.9354	 -3e-004
 -7.9717	  0.9356	 -3e-004
 -7.1945	  0.9360	 -3e-004
 -6.4571	  0.9369	 -3e-004
 -5.7595	  0.9386	 -4e-004
 -5.1019	  0.9418	 -5e-004
 -4.4841	  0.9476	 -8e-004
 -3.9061	  0.9576	 -1e-003
 -3.3680	  0.9737	 -2e-003
 -2.8698	  0.9983	 -3e-003
 -2.4114	  1.0335	 -4e-003
 -1.9929	  1.0803	 -6e-003
 -1.6143	  1.1379	 -7e-003
 -1.2755	  1.2027	 -8e-003
 -0.9765	  1.2685	 -8e-003
 -0.7175	  1.3278	 -6e-003
 -0.4982	  1.3739	 -2e-003
 -0.3189	  1.4039	  2e-003
 -0.1794	  1.4196	  4e-003
 -0.0797	  1.4257	  5e-003
 -0.0199	  1.4272	  5e-003
  0.0000	  1.4273	  5e-003
  0.0199	  1.4272	  5e-003
  0.0797	  1.4257	  5e-003
  0.1794	  1.4196	  4e-003
  0.3189	  1.4039	  2e-003
  0.4982	  1.3739	 -2e-003
  0.7175	  1.3278	 -6e-003
  0.9765	  1.2685	 -8e-003
  1.2755	  1.2027	 -8e-003
  1.6143	  1.1379	 -7e-003
  1.9929	  1.0803	 -6e-003
  2.4114	  1.0335	 -4e-003
  2.8698	  0.9983	 -3e-003
  3.3680	  0.9737	 -2e-003
  3.9061	  0.9576	 -1e-003
  4.4841	  0.9476	 -8e-004
  5.1019	  0.9418	 -5e-004
  5.7595	  0.9386	 -4e-004
  6.4571	  0.9369	 -3e-004
  7.1945	  0.9360	 -3e-004
  7.9717	  0.9356	 -3e-004
  8.7888	  0.9354	 -3e-004
  9.6457	  0.9353	 -3e-004
 10.5426	  0.9353	 -3e-004
 11.4792	  0.9353	 -3e-004
 12.4558	  0.9353	 -3e-004