# Tsai's modification from Fenton 1985 Stokes paper with notional H/d and current (for Stokes and FourWavelength

# Solution by 7-order Stokes theory

# Surface of wave - trough-crest-trough, note quadratic point spacing clustered around crest
# Non-dimensionalised with respect to depth
# X/d, eta/d, & check of surface pressure

 -4.0000	 0.8880	 2e-004
 -3.6864	 0.8896	 2e-004
 -3.3856	 0.8941	 1e-004
 -3.0976	 0.9016	-6e-005
 -2.8224	 0.9119	-2e-004
 -2.5600	 0.9250	-2e-004
 -2.3104	 0.9409	-7e-006
 -2.0736	 0.9595	 2e-004
 -1.8496	 0.9808	 2e-004
 -1.6384	 1.0043	 1e-004
 -1.4400	 1.0291	-6e-005
 -1.2544	 1.0544	-2e-004
 -1.0816	 1.0791	-2e-004
 -0.9216	 1.1024	-2e-004
 -0.7744	 1.1234	-2e-004
 -0.6400	 1.1414	-9e-005
 -0.5184	 1.1561	-5e-006
 -0.4096	 1.1674	 9e-005
 -0.3136	 1.1757	 2e-004
 -0.2304	 1.1812	 2e-004
 -0.1600	 1.1847	 3e-004
 -0.1024	 1.1866	 3e-004
 -0.0576	 1.1875	 3e-004
 -0.0256	 1.1879	 3e-004
 -0.0064	 1.1880	 3e-004
  0.0000	 1.1880	 3e-004
  0.0064	 1.1880	 3e-004
  0.0256	 1.1879	 3e-004
  0.0576	 1.1875	 3e-004
  0.1024	 1.1866	 3e-004
  0.1600	 1.1847	 3e-004
  0.2304	 1.1812	 2e-004
  0.3136	 1.1757	 2e-004
  0.4096	 1.1674	 9e-005
  0.5184	 1.1561	-5e-006
  0.6400	 1.1414	-9e-005
  0.7744	 1.1234	-2e-004
  0.9216	 1.1024	-2e-004
  1.0816	 1.0791	-2e-004
  1.2544	 1.0544	-2e-004
  1.4400	 1.0291	-6e-005
  1.6384	 1.0043	 1e-004
  1.8496	 0.9808	 2e-004
  2.0736	 0.9595	 2e-004
  2.3104	 0.9409	-7e-006
  2.5600	 0.9250	-2e-004
  2.8224	 0.9119	-2e-004
  3.0976	 0.9016	-6e-005
  3.3856	 0.8941	 1e-004
  3.6864	 0.8896	 2e-004
  4.0000	 0.8880	 2e-004

